Hole Depth (ft),True Vertical Depth (ft),Rate Of Penetration (ft/hr),Rotary RPM (rpm),Rotary Torque (ft-klbf),Weight on Bit (klb),Differential Pressure (psi),Inclination (deg),Gamma (API),Bit Size (In),Mud Weight (Lb/galUS)
541,541.48,451.9,60.4,1.8,-0.3,51.1,0.4,32,17.5,10.8
542,542.42,436.6,59.7,3.2,0.2,88.53,0.4,32,17.5,10.8
543,543.37,496,59.6,4.2,-0.1,61.1,0.4,39,17.5,10.8
544,544.33,427.1,59.4,4.4,0.2,117.2,0.4,39,17.5,10.8
545,545.39,482.3,59.7,4.1,0.9,74.92,0.4,45,17.5,10.8
546,546.46,466.9,59.8,3.2,0.1,65.62,0.4,45,17.5,10.8
547,547.45,424.1,59.7,5.5,0.7,114.99,0.4,52,17.5,10.8
548,548.32,476.9,59.8,3.7,1.7,113.15,0.4,52,17.5,10.8
549,549.32,445.3,59.7,4.9,1.4,69.19,0.4,52,17.5,10.8
550,550.4,454.8,59.6,5.4,1.4,10.34,0.4,45,17.5,10.8
551,551.33,471.1,59.9,4.2,2.6,53.49,0.4,45,17.5,10.8
552,552.36,446.9,60.3,3.8,2.4,105.64,0.4,45,17.5,10.8
553,553.4,443.2,60.5,2,1.1,40.3,0.4,45,17.5,10.8
554,554.39,454.9,59.9,2.1,-0.8,-101.23,0.4,45,17.5,10.8
555,555.42,479.5,60.1,1.9,-1.4,-393.82,0.4,39,17.5,10.8
556,556.28,438.8,59.6,1.9,-1.3,-348.6,0.4,39,17.5,10.8
557,557.29,455,59.7,3.1,-0.8,-310.78,0.4,39,17.5,10.8
558,558.3,455.3,59.7,3.7,-0.8,-287.21,0.4,39,17.5,10.8
559,559.37,450.2,60.2,4.2,-1.1,-110.42,0.4,45,17.5,10.8
560,560.46,445.8,60.3,1.3,-1.2,-33.9,0.4,39,17.5,10.8
561,561.43,446.9,60.3,2.7,-0.9,-33.91,0.4,52,17.5,10.8
562,562.39,456.6,59.8,3.6,-0.1,-63.84,0.4,52,17.5,10.8
563,563.41,454.7,60,2.9,-0.3,-220.64,0.4,52,17.5,10.8
564,564.31,458.8,59.7,5.2,-0.3,-217.68,0.4,52,17.5,10.8
565,563.82,452.8,58.8,9.2,-2.9,-40.52,0.4,52,17.5,10.8
566,566.34,238.7,59.9,2,-1.9,21.73,0.4,52,17.5,10.8
567,567.33,200.5,59.6,3,-2,12.61,0.4,52,17.5,10.8
568,568.32,301.2,59.7,2.2,-2,-16.69,0.4,52,17.5,10.8
569,569.32,301.8,59.4,3.7,-1.5,29.75,0.4,45,17.5,10.8
570,570.32,301.3,59.7,1.3,-1.7,9.78,0.4,45,17.5,10.8
571,571.35,316.5,59.8,2,-1.6,5.49,0.4,45,17.5,10.8
572,572.37,342.3,59.6,2,-1.9,-21.42,0.4,39,17.5,10.8
573,573.37,342.7,60,2.3,-1.4,48.57,0.4,39,17.5,10.8
574,574.36,352.3,59.8,2.5,-1.2,7.08,0.4,52,17.5,10.8
575,575.38,355.2,59.9,3.3,0.8,64.5,0.4,52,17.5,10.8
576,576.41,354.9,60.1,3.2,1.1,51.38,0.4,52,17.5,10.8
577,577.41,341.9,60.1,3.3,0.5,78.56,0.4,52,17.5,10.8
578,578.47,357.8,60.2,2,0.6,61.65,0.4,52,17.5,10.8
579,579.45,347.5,59.7,4.1,1,81.59,0.4,58,17.5,10.8
580,580.39,354,60.2,3.6,0.8,70.23,0.4,58,17.5,10.8
581,581.29,347.6,59.8,3.8,1.1,84.34,0.4,52,17.5,10.8
582,582.37,354.4,59.8,5.2,2.2,145.46,0.4,52,17.5,10.8
583,583.4,352,60,3,0.6,50.34,0.4,52,17.5,10.8
584,584.38,354.9,60.3,2.5,0.3,57.12,0.4,52,17.5,10.8
585,585.4,354.8,60.4,2.7,0.6,51.67,0.4,52,17.5,10.8
586,586.45,346.3,60.2,1.7,-0.6,38.12,0.4,52,17.5,10.8
587,587.51,349.3,59.9,3.4,0.8,30.31,0.4,52,17.5,10.8
588,588.42,348.1,59.6,3.5,0,58.32,0.4,52,17.5,10.8
589,589.31,355.7,59.8,3.7,0.7,51.85,0.4,52,17.5,10.8
590,590.34,355,59.7,2.5,-1.6,8.82,0.4,52,17.5,10.8
591,591.39,347.3,59.9,1.8,-2.2,-45.63,0.4,52,17.5,10.8
592,592.33,357.6,59.9,3.4,0.4,71.2,0.4,45,17.5,10.8
593,593.35,351.3,60,3.1,0.4,93.89,0.4,45,17.5,10.8
594,594.37,355.7,60.1,3.6,0.5,62.45,0.4,45,17.5,10.8
595,595.36,361.3,59.7,4.2,0.5,75.73,0.4,45,17.5,10.8
596,596.4,345.1,59.7,4.2,0.3,59.22,0.4,45,17.5,10.8
597,597.4,356.7,59.7,4.5,0.6,25.42,0.4,45,17.5,10.8
598,598.49,203.4,60.2,1.1,-0.7,55.01,0.4,45,17.5,10.8
599,599.38,139.5,59.8,2.3,0,73.02,0.4,45,17.5,10.8
600,600.34,246.4,59.6,2.9,0,71.21,0.4,58,17.5,10.8
601,601.37,256.8,60.2,2.1,-0.1,75.4,0.4,58,17.5,10.8
602,602.37,251.3,59.9,2.7,-0.3,76.27,0.4,45,17.5,10.8
603,603.34,251.7,60,1.7,-0.1,75.23,0.4,45,17.5,10.8
604,604.37,254.1,60.3,1.5,0.1,93.19,0.4,45,17.5,10.8
605,605.4,249.1,60.1,2.1,0.3,95,0.4,45,17.5,10.8
606,606.45,267.5,59.9,3.2,0.6,105.09,0.4,45,17.5,10.8
607,607.52,307.2,60.1,1.9,0.7,107.6,0.4,45,17.5,10.8
608,608.48,293.8,59.7,2.5,0.9,114.24,0.4,45,17.5,10.8
609,609.43,302.7,59.7,2.6,1.1,140.6,0.4,45,17.5,10.8
610,610.44,307.8,60,2.6,1.1,111.8,0.4,58,17.5,10.8
611,611.43,295.5,60.1,1.4,0.4,81.9,0.4,58,17.5,10.8
612,612.45,309.1,60,2.2,0.7,108.45,0.4,40,17.5,10.8
613,613.45,300.3,60,3.3,1.7,160.99,0.4,39,17.5,10.8
614,614.43,291,59.9,2.5,1.6,125.06,0.4,45,17.5,10.8
615,615.42,297,59.8,3,1.7,120.87,0.4,45,17.5,10.8
616,616.42,297.8,59.8,3.9,2.4,151.92,0.4,52,17.5,10.8
617,617.45,311.8,59.7,3.5,1.8,148.44,0.4,58,17.5,10.8
618,618.38,292.3,59.9,2.6,1.8,131.01,0.4,58,17.5,10.8
619,619.4,306.2,60,3.2,1.6,137.38,0.4,58,17.5,10.8
620,620.39,301.7,59.7,4.4,2.9,149.39,0.4,-999.25,17.5,10.8
621,621.4,300.2,60.1,3.6,3.7,161.8,0.4,-999.25,17.5,10.8
622,622.38,295.2,60.3,2.7,2.8,143.2,0.4,65,17.5,10.8
623,623.33,302.3,60.2,2.2,1.8,149.52,0.4,65,17.5,10.8
624,624.36,308.8,60.1,2.6,1.7,142.28,0.4,65,17.5,10.8
625,625.38,317,59.8,3.1,2.1,157.55,0.4,52,17.5,10.8
626,626.44,354.6,59.8,2.2,0.7,77.4,0.4,52,17.5,10.8
627,627.37,351.7,60,2.4,0.7,150.61,0.4,52,17.5,10.8
628,628.37,343.4,60.3,1.8,0.5,116.32,0.4,52,17.5,10.8
629,629.4,356.4,59.9,3.6,1.3,142,0.4,65,17.5,10.8
630,630.31,350.7,60.1,3.7,2.2,181.41,0.4,65,17.5,10.8
631,631.39,358,59.8,3.4,2.2,161.39,0.4,65,17.5,10.8
632,632.41,346.9,60.1,3.6,2.6,177.46,0.4,65,17.5,10.8
633,633.35,362.8,59.9,4.2,2,162.28,0.4,65,17.5,10.8
634,634.34,342.9,59.8,3.9,2,165.04,0.4,65,17.5,10.8
635,635.44,363.2,60.2,4.2,1.2,179.58,0.4,52,17.5,10.8
636,636.39,342.6,60.2,2.7,1.5,162.66,0.4,52,17.5,10.8
637,637.38,341,60.2,3.2,1.4,169.72,0.4,52,17.5,10.8
638,638.44,366.4,60,3.7,0.5,203.2,0.4,52,17.5,10.8
639,639.36,355.5,59.8,3.1,-1.3,93.92,0.4,52,17.5,10.8
640,640.33,350.9,59.9,3.3,-0.5,126.81,0.4,52,17.5,10.8
641,641.35,349.5,59.7,5.8,1,184.41,0.4,52,17.5,10.8
642,642.33,353.4,60,4.3,0.4,181.95,0.4,52,17.5,10.8
643,643.34,347.4,60.1,1.7,-1.5,122.91,0.4,52,17.5,10.8
644,644.38,348.8,60.1,2.2,-1.5,92.49,0.4,52,17.5,10.8
645,645.38,359.4,60.3,3.6,0.2,203.52,0.4,52,17.5,10.8
646,646.38,348,60.2,3.5,1.6,158.97,0.4,52,17.5,10.8
647,647.39,348.1,59.9,3.2,-0.2,163.56,0.4,52,17.5,10.8
648,648.4,348.2,60,2.8,-0.8,176.91,0.4,52,17.5,10.8
649,649.45,366.6,60.2,2.6,-0.1,144.65,0.4,45,17.5,10.8
650,650.36,340.8,60.2,3.2,-0.3,155.58,0.4,45,17.5,10.8
651,651.38,353.6,59.9,3.4,-0.4,149.88,0.4,45,17.5,10.8
652,652.46,361,60.3,2.4,-1.1,122.42,0.4,45,17.5,10.8
653,653.37,345.2,60,3.8,-0.4,153.66,0.4,45,17.5,10.8
654,654.3,355.5,59.9,4.2,-0.5,149.13,0.4,45,17.5,10.8
655,655.37,351.8,59.8,3.7,-1.3,140.47,0.4,45,17.5,10.8
656,656.37,347.7,60,3.2,0.6,139.24,0.4,45,17.5,10.8
657,657.31,361.4,60.2,3,1,176.78,0.4,58,17.5,10.8
658,658.38,398.5,60,3.3,-0.7,135.45,0.4,58,17.5,10.8
659,659.42,401.2,60.1,3.7,0.5,129.99,0.4,58,17.5,10.8
660,660.46,419.1,59.3,6.1,0.2,144.67,0.4,58,17.5,10.8
661,661.43,370.9,58.8,7.6,5.7,269.68,0.4,58,17.5,10.8
662,662.47,382.6,59.5,6.8,5,217.91,0.4,58,17.5,10.8
663,663.39,396.4,60,5.2,3.3,220.71,0.4,58,17.5,10.8
664,664.35,405.6,60.1,5,3.6,195.11,0.4,58,17.5,10.8
665,665.39,398.9,59.8,7.3,4,207.18,0.4,58,17.5,10.8
666,666.48,413.2,59.9,2.4,-0.1,102.44,0.4,58,17.5,10.8
667,667.41,391.1,60.2,3.1,1.1,117.29,0.4,52,17.5,10.8
668,668.28,395.9,60.1,3.1,0.3,123.62,0.4,58,17.5,10.8
669,669.36,403.3,59.8,3.8,0.4,158.66,0.4,58,17.5,10.8
670,670.39,401.5,60.4,2.7,0.9,148.34,0.4,58,17.5,10.8
671,671.44,398.4,60.7,2.7,2.5,174.69,0.4,65,17.5,10.8
672,672.4,412.4,60.1,4.7,4.2,165.69,0.4,65,17.5,10.8
673,673.32,391.2,59.4,5.9,4.4,182.8,0.4,65,17.5,10.8
674,674.38,405.3,59.8,4.9,4.2,187.93,0.4,65,17.5,10.8
675,675.33,411.2,59.7,5.7,4.3,248.85,0.4,65,17.5,10.8
676,676.26,392,59.9,5.4,4.1,198.13,0.4,65,17.5,10.8
677,677.34,416.8,60,5.3,3.1,213.43,0.4,65,17.5,10.8
678,678.36,390.3,60.2,4.6,2.3,190.42,0.4,65,17.5,10.8
679,679.36,396.4,59.9,4.6,2.2,177.03,0.4,65,17.5,10.8
680,680.34,432.3,59.8,5.2,3,203.31,0.4,65,17.5,10.8
681,681.31,422,60,5.2,4.3,228.42,0.4,65,17.5,10.8
682,682.46,430.2,59.9,6.5,4.4,231.3,0.4,65,17.5,10.8
683,683.37,408.4,60,4.7,3.5,220.23,0.4,65,17.5,10.8
684,684.36,441.4,60,4.8,2.5,233.84,0.4,65,17.5,10.8
685,685.31,410,59.7,6,1.5,158.27,0.4,65,17.5,10.8
686,686.29,446.5,59.6,6.3,0.8,241.05,0.4,58,17.5,10.8
687,687.44,438.4,60,3.5,-0.2,212.78,0.4,58,17.5,10.8
688,688.39,403,60,4.7,0.1,191.43,0.4,52,17.5,10.8
689,689.43,330.4,62.2,2.6,-0.5,76.85,0.4,52,17.5,10.8
690,690.66,244.3,65.2,2.3,0.2,30.75,0.4,52,17.5,10.8
691,691.33,152.5,65,3.7,1.2,-25.69,0.4,52,17.5,10.8
692,692.49,422.9,65.2,5.1,4.5,59.58,0.4,45,17.5,10.8
693,693.39,571.3,65,5.3,5.4,97.46,0.3,45,17.5,10.8
694,694.35,571.7,65.2,4.9,5.7,82.78,0.3,45,17.5,10.8
695,695.42,563,65,4.7,4.9,63.7,0.3,45,17.5,10.8
696,696.41,547.6,64.8,4.3,3.5,60.71,0.3,45,17.5,10.8
697,697.46,571.7,64.4,5.6,3.7,27.55,0.3,45,17.5,10.8
698,698.44,551.9,65.2,3.7,4.2,-11.67,0.3,45,17.5,10.8
699,699.44,648.3,65,6.1,5.3,39.54,0.3,45,17.5,10.8
700,700.44,612,65.2,5.8,6.3,39.98,0.3,45,17.5,10.8
701,701.39,706.9,64.7,5.8,6.7,-13.63,0.3,45,17.5,10.8
702,702.28,624.8,64.7,5.5,6,39.18,0.3,45,17.5,10.8
703,703.22,682.6,65,5.9,7,-36.7,0.3,45,17.5,10.8
704,704.37,685.4,64.9,5.4,7.6,-19.74,0.3,55,17.5,10.8
705,705.35,656,65.1,6.3,6.5,-31.21,0.3,45,17.5,10.8
706,706.37,674.8,65.1,4.1,3.7,-33.89,0.3,45,17.5,10.8
707,707.27,682.1,65.1,3,3.1,-54.4,0.3,45,17.5,10.8
708,708.28,677.2,65.3,5.3,6.9,-55.32,0.3,-999.25,17.5,10.8
709,709.32,630.7,64.7,6.4,7.3,-41.7,0.3,-999.25,17.5,10.8
710,710.24,663.6,65,6.5,8.1,-17.09,0.3,-999.25,17.5,10.8
711,711.27,765.2,65,6.5,7.4,2.76,0.3,-999.25,17.5,10.8
712,712.18,660.5,65.2,4.6,8.8,42.08,0.3,-999.25,17.5,10.8
713,713.14,851.1,64.9,5.9,8.6,111.83,0.3,52,17.5,10.8
714,714.39,746.7,65.1,3.8,8.1,54,0.3,52,17.5,10.8
715,715.4,679.2,64.6,7.2,6.9,91.08,0.3,45,17.5,10.8
716,716.32,763.4,65.3,6.1,7,26.27,0.3,45,17.5,10.8
717,717.28,685.1,64.8,6,7.1,26.41,0.3,45,17.5,10.8
718,718.29,767,65.2,3.6,5,-22.66,0.3,45,17.5,10.8
719,719.46,698.3,65.2,4.8,5.1,-64.31,0.3,45,17.5,10.8
720,720.42,654.5,65.2,4.3,6.8,7.46,0.3,45,17.5,10.8
721,721.35,766.3,65,6.2,8,-13.68,0.3,45,17.5,10.8
722,722.39,690.1,65.2,6.4,7.8,15.09,0.3,45,17.5,10.8
723,723.23,665.4,64.8,6,7.4,-15.6,0.3,45,17.5,10.8
724,724.29,812.5,65,6.1,7.5,-24.74,0.3,45,17.5,10.8
725,725.21,643.9,65.5,3.7,7.5,-5.72,0.3,45,17.5,10.8
726,726.33,720.2,64.8,5.8,6.7,62.42,0.3,45,17.5,10.8
727,727.4,742.3,65,4.7,6.5,9.56,0.3,45,17.5,10.8
728,728.4,658.4,65.1,6.2,7.4,-28.26,0.3,45,17.5,10.8
729,729.21,722.4,64.9,5.7,6.7,-33.25,0.3,45,17.5,10.8
730,730.1,740.7,65.2,4.8,5.8,-8.87,0.3,52,17.5,10.8
731,731.29,739.9,64.8,5.4,5,-30.97,0.3,52,17.5,10.8
732,732.47,657,64.7,6.6,6.1,-21.73,0.3,52,17.5,10.8
733,733.5,671.3,65.1,4.5,5.1,10.42,0.3,52,17.5,10.8
734,734.41,762.2,65.1,5.6,6.3,-18.47,0.3,52,17.5,10.8
735,735.34,773.2,65.3,6.4,8.6,13.65,0.3,52,17.5,10.8
736,736.33,639.4,64.7,7.9,9.8,34.82,0.3,45,17.5,10.8
737,737.22,742.7,64.8,7.3,10.1,8.49,0.3,45,17.5,10.8
738,738.29,706.7,65,6.4,5.9,13.36,0.3,45,17.5,10.8
739,739.41,741.6,65.2,5,4.1,9.88,0.3,45,17.5,10.8
740,740.42,664.5,64.9,6.3,5.2,39.11,0.3,45,17.5,10.8
741,741.35,757.2,64.5,5.5,2.6,-65.81,0.3,52,17.5,10.8
742,742.16,656.3,64.5,4.3,2.4,-68.46,0.3,52,17.5,10.8
743,743.09,764.9,65.2,4.3,2.8,-44.4,0.3,52,17.5,10.8
744,744.29,669.2,65.3,5.7,3.5,-25.76,0.3,52,17.5,10.8
745,745.48,753,65.5,4.3,3.6,-48.07,0.3,52,17.5,10.8
746,746.41,666.9,65.2,4.4,2.6,-57.85,0.3,52,17.5,10.8
747,747.34,778.4,65.2,4.5,1.6,-80.51,0.3,52,17.5,10.8
748,748.27,667.9,65,6.2,2.8,-57.08,0.3,52,17.5,10.8
749,749.23,669.4,64.8,6.2,3,-44.99,0.3,52,17.5,10.8
750,750.07,753.5,64.8,5.2,2.6,-55.31,0.3,45,17.5,10.8
751,751.27,660.4,64.4,6.6,1.6,-58.43,0.3,45,17.5,10.8
752,752.45,810.8,64.8,3.4,0.8,-86.86,0.3,45,17.5,10.8
753,753.36,657,64.7,3.4,1.1,-126.25,0.3,45,17.5,10.8
754,754.29,654.5,65.2,3.9,0.9,-113.52,0.3,45,17.5,10.8
755,755.18,752.3,64.8,3.1,0,-99.95,0.3,45,17.5,10.8
756,756.35,746.3,65.2,2.6,0,-69.36,0.3,45,17.5,10.8
757,757.51,666.9,64.8,2.8,0.3,-125.83,0.3,45,17.5,10.8
758,758.33,735.7,64.8,5.1,0.7,-87.28,0.3,45,17.5,10.8
759,759.31,733.9,64.5,6.1,1.2,-91.37,0.3,45,17.5,10.8
760,760.14,677.8,64.5,6.1,1,-104.98,0.3,45,17.5,10.8
761,761.12,696.9,64.7,4.1,0.2,-94.71,0.3,45,17.5,10.8
762,762.29,716,64.8,3.8,-0.5,-115.37,0.3,45,17.5,10.8
763,763.57,921.7,65.6,2,0.9,-91.96,0.3,45,17.5,10.8
764,764.57,816.7,64.5,5.3,1.1,-60.01,0.3,45,17.5,10.8
765,765.67,827.8,64.9,3.5,0.3,-34.56,0.3,34,17.5,10.8
766,766.59,655.3,64.6,6.1,3.8,-71.11,0.3,32,17.5,10.8
767,767.32,981.1,64.8,8.2,6.5,22.23,0.3,32,17.5,10.8
768,768.1,788.2,64.8,7.5,8.3,82.48,0.3,32,17.5,10.8
769,769.4,732.9,64.5,7.9,9.6,111.37,0.3,32,17.5,10.8
770,770.44,701.6,64.4,8.3,7.3,96.55,0.3,32,17.5,10.8
771,771.8,514.1,65,2.5,1.3,-65.87,0.3,32,17.5,10.8
772,772.33,90.4,64.9,3.7,1,-102.24,0.3,32,17.5,10.8
773,773.39,388.7,64.8,6.2,3.9,13.13,0.3,32,17.5,10.8
774,774.17,564.2,65.4,5.4,5.4,35.62,0.3,32,17.5,10.8
775,775.08,767.6,65,6.8,6.5,108.42,0.3,32,17.5,10.8
776,776.14,813.1,65,6.3,6.8,127.47,0.3,32,17.5,10.8
777,777.49,779.5,64.8,6.5,6.2,105.82,0.3,32,17.5,10.8
778,778.63,592.5,64.8,4.5,7.2,101.76,0.3,32,17.5,10.8
779,779.11,873.9,64.8,5.7,6.1,168.79,0.3,32,17.5,10.8
780,780.36,743,64.8,4.2,5.2,121.93,0.3,45,17.5,10.8
781,781.1,336.1,65.1,1.4,0.4,-28.03,0.3,45,17.5,10.8
782,782.25,122.5,64.9,1.6,-0.5,51.76,0.3,45,17.5,10.8
783,783.28,496.3,65,1.6,-0.3,70.88,0.3,45,17.5,10.8
784,784.32,504.1,65.2,0.9,-0.8,63.16,0.3,45,17.5,10.8
785,785.4,582.5,64.5,4.5,-0.4,112.23,0.3,45,17.5,10.8
786,786.43,631.3,64.8,3.3,0.7,176.65,0.3,45,17.5,10.8
787,787.31,629.1,64.8,4.8,-0.4,138.8,0.3,45,17.5,10.8
788,788.37,672.2,64.8,5,0.5,198.71,0.3,45,17.5,10.8
789,789.34,612.4,64.8,5.3,1.7,227.4,0.3,39,17.5,10.8
790,790.22,728.2,64.9,3.5,0.1,213.43,0.3,39,17.5,10.8
791,791.27,626.3,65,1.7,-1,146.98,0.3,39,17.5,10.8
792,792.4,721,64.9,3.2,-0.9,103.18,0.3,44,17.5,10.8
793,793.35,723.9,65,2,-1.3,80.53,0.3,45,17.5,10.8
794,794.27,672.5,65,1.4,-1.4,67.06,0.3,45,17.5,10.8
795,795.2,664.3,65,3.9,-0.5,112.1,0.3,45,17.5,10.8
796,796.37,743.7,65,2.8,-0.3,115.03,0.3,45,17.5,10.8
797,797.49,751.2,64.8,4,0,130.49,0.3,45,17.5,10.8
798,798.44,774.4,65,0.7,-0.5,180.48,0.3,45,17.5,10.8
799,799.52,816.8,65.2,2.8,-0.1,137.68,0.3,45,17.5,10.8
800,800.56,815.3,64.9,5.7,1.3,165.08,0.3,45,17.5,10.8
801,801.45,700.6,65.1,3.1,0.9,177.37,0.3,45,17.5,10.8
802,802.41,796.9,65.5,1.7,-0.3,126.59,0.3,45,17.5,10.8
803,803.28,998.6,65,2.4,-0.9,148.65,0.3,45,17.5,10.8
804,804.18,865.2,64.6,2.5,-0.9,140.14,0.3,45,17.5,10.8
805,805.13,782.6,64.9,3.4,0,174.94,0.3,58,17.5,10.8
806,806.19,834.8,65.3,2.3,0.9,160.84,0.3,-999.25,17.5,10.8
807,807.24,809.5,64.9,3.1,1.6,204.76,0.3,1107,17.5,10.8
808,808.4,922.6,64.4,2.7,0.3,75.19,0.3,45,17.5,10.8
809,809.32,790.7,64.9,2,-1,114.03,0.3,45,17.5,10.8
810,810.4,846.5,65.3,2.4,-1,101.6,0.3,45,17.5,10.8
811,811.44,799.3,65,3.9,1.4,168.25,0.3,45,17.5,10.8
812,812.24,1011,65.5,5.3,1.2,223.76,0.3,39,17.5,10.8
813,813.03,797,65.5,3.3,0.7,213.71,0.3,39,17.5,10.8
814,814.17,955.3,65,4.2,0.8,181.88,0.3,39,17.5,10.8
815,815.12,774.4,65.1,3.6,1.8,205.64,0.3,45,17.5,10.8
816,816.15,807.4,64.4,7.3,4.9,264.26,0.3,45,17.5,10.8
817,817.21,826.7,65,7.2,4.4,272.11,0.3,45,17.5,10.8
818,818.38,974.7,64.9,5.3,2.4,290.49,0.3,45,17.5,10.8
819,819.46,771.5,65.7,5,4.4,283.3,0.3,39,17.5,10.8
820,820.37,823.4,65,5.7,2.6,310.14,0.3,39,17.5,10.8
821,821.51,915.4,64.9,7.2,4.8,309.53,0.3,39,17.5,10.8
822,822.17,601.3,65.4,7.6,4.1,293.49,0.3,39,17.5,10.8
823,823,894.1,65.1,5.7,3.7,301.58,0.3,39,17.5,10.8
824,824.15,932.4,65.3,5.5,2.8,329.91,0.3,52,17.5,10.8
825,825.21,778.1,65.1,4.4,1.1,302.06,0.3,52,17.5,10.8
826,826.19,815.5,64.9,5.5,5,327.3,0.3,58,17.5,10.8
827,827.23,858.9,64.9,6.4,4.2,331.81,0.3,58,17.5,10.8
828,828.37,895.6,65,6.5,4.5,307.08,0.3,58,17.5,10.8
829,829.26,819.6,65.4,6.1,4.4,315.58,0.3,58,17.5,10.8
830,830.28,837.8,64.6,6.6,5.1,360.04,0.3,58,17.5,10.8
831,831.4,880.3,64.8,8.1,5.4,358.3,0.3,52,17.5,10.8
832,832.47,824.5,65.1,6.5,5.2,384.13,0.3,52,17.5,10.8
833,833.42,777.4,65.1,6.5,5.8,348.01,0.3,52,17.5,10.8
834,834.53,918,65.1,6.3,5,340.26,0.3,52,17.5,10.8
835,835.44,776,65.1,5,2.6,309.45,0.3,58,17.5,10.8
836,836.56,892.6,64.7,6.7,2.5,299.21,0.3,58,17.5,10.8
837,837.48,765.6,64.4,8.1,2.9,341.59,0.3,58,17.5,10.8
838,838.58,902.7,65.2,5.8,4.1,326.08,0.3,58,17.5,10.8
839,839.23,714,64.7,6.4,4,377.87,0.3,58,17.5,10.8
840,840,813.7,64.9,6.6,4.2,328.02,0.3,58,17.5,10.8
841,841.05,829,64.7,6.6,4.7,340.77,0.3,58,17.5,10.8
842,842.31,911.3,65.6,5,3.2,292.47,0.3,58,17.5,10.8
843,843.38,964.7,65.1,4.7,2.3,286.99,0.3,52,17.5,10.8
844,844.36,837.1,65.1,5.4,0.9,273.33,0.3,52,17.5,10.8
845,845.29,992.5,65.1,4.6,2.5,300.61,0.3,52,17.5,10.8
846,846.03,835.7,64.8,5.1,2.4,327.39,0.3,45,17.5,10.8
847,847.16,894,65,3.1,1.5,234.52,0.3,45,17.5,10.8
848,848.29,872.2,64.7,4.9,-0.6,176.5,0.3,45,17.5,10.8
849,849.51,990.4,65,5.9,4.4,350.59,0.3,45,17.5,10.8
850,850.22,645,64.3,7.5,5.9,361.76,0.3,45,17.5,10.8
851,851.05,879.2,64.3,7.9,6.5,384.7,0.3,45,17.5,10.8
852,852.16,966.8,64.5,8.1,7.7,425.39,0.3,45,17.5,10.8
853,853.35,834.5,65.3,6.2,6.9,360.78,0.3,45,17.5,10.8
854,854.4,827.9,65.1,5.6,7.3,385.02,0.3,45,17.5,10.8
855,855.53,910.8,64.3,8.5,8.9,413.76,0.3,45,17.5,10.8
856,856.53,841.4,65.4,6.7,10,420.33,0.3,45,17.5,10.8
857,857.24,690.8,65.1,7.9,8.6,471.91,0.3,45,17.5,10.8
858,858.21,996,65.1,5.7,6.9,364.57,0.3,52,17.5,10.8
859,859.17,843.2,64.7,6.5,6.3,323.01,0.3,52,17.5,10.8
860,860.38,963.9,65,5.8,6.5,399.67,0.3,52,17.5,10.8
861,861.35,655.1,64.5,6.7,7.1,313.6,0.3,52,17.5,10.8
862,861.98,963.3,64.5,7.3,6,351.18,0.3,45,17.5,10.8
863,863.13,885.3,65.2,7.1,6.7,360.59,0.3,45,17.5,10.8
864,864.2,912.7,65.1,7.3,7.5,367.45,0.3,45,17.5,10.8
865,865.33,712.6,63.7,10.8,10.4,397.4,0.3,58,17.5,10.8
866,866.41,608.2,65.2,6.5,8.8,377.56,0.3,58,17.5,10.8
867,867.46,877,65,6.7,5.6,330.23,0.3,58,17.5,10.8
868,868.35,832.7,65,5.8,4.7,353.2,0.3,58,17.5,10.8
869,869.28,1017.9,65.3,5.4,4.2,286.29,0.3,58,17.5,10.8
870,870.18,853.4,65,6.8,5.6,370.21,0.3,58,17.5,10.8
871,871.15,844.9,64.6,8.1,7.1,338.97,0.3,58,17.5,10.8
872,872.36,976.3,65.4,6.6,9.7,375.89,0.3,58,17.5,10.8
873,873.39,623.2,64.6,9.2,11.2,375.52,0.3,58,17.5,10.8
874,874.49,471.7,64.4,5.3,4.2,357.57,0.3,58,17.5,10.8
875,875.17,262.3,69.1,7,-1,172.72,0.3,58,17.5,10.8
876,876.26,201.8,69.9,1.1,-1.5,95.05,0.3,58,17.5,10.8
877,877.43,355.5,69.7,4,1.2,201.61,0.3,45,17.5,10.8
878,878.47,478.3,69.6,5.1,2,251.77,0.3,45,17.5,10.8
879,879.44,533.5,69.9,3.7,0.6,260.33,0.3,45,17.5,10.8
880,880.44,489.7,69.8,2.3,-0.9,157.78,0.3,45,17.5,10.8
881,881.28,488.6,69.9,3.1,0.9,200.93,0.3,45,17.5,10.8
882,882.28,519.3,69.8,3.3,-0.1,150.6,0.3,45,17.5,10.8
883,883.31,475.6,70,3.6,0.8,288.69,0.3,45,17.5,10.8
884,884.39,487.1,70,3.6,1.8,236.93,0.3,45,17.5,10.8
885,885.4,493,69.8,4.2,1.1,188.38,0.3,45,17.5,10.8
886,886.34,543.3,70,3.7,1,226.4,0.3,45,17.5,10.8
887,887.34,580.8,70.1,5.5,3.4,277.56,0.3,45,17.5,10.8
888,888.34,631.8,69.8,6.3,5,325.93,0.3,45,17.5,10.8
889,889.38,621.5,69.8,5.4,5.1,306.07,0.3,45,17.5,10.8
890,890.23,580.5,70.1,4.6,4.7,302.89,0.3,45,17.5,10.8
891,891.28,632.8,70.1,5.2,5.2,310.17,0.3,45,17.5,10.8
892,892.21,547.9,69.9,4.9,3.6,308.44,0.3,45,17.5,10.8
893,893.26,637.1,69.9,4.1,2.4,265.83,0.3,45,17.5,10.8
894,894.3,569.4,70.2,3.6,2.7,235.62,0.3,58,17.5,10.8
895,895.37,646.5,69.7,5.7,3.5,290.84,0.3,58,17.5,10.8
896,896.32,582.3,70.1,5.2,5.2,267.8,0.3,52,17.5,10.8
897,897.37,601,69.8,7,6.9,344.66,0.3,52,17.5,10.8
898,898.33,636,69.9,7.7,5.6,322.48,0.3,45,17.5,10.8
899,899.36,615.1,70.3,7,6.6,324.55,0.3,45,17.5,10.8
900,900.53,620.5,70,5.7,4.1,273.85,0.3,45,17.5,10.8
901,901.43,539.7,70,5.3,4.6,293.62,0.3,45,17.5,10.8
902,902.35,629.4,69.6,6.2,4.7,277.67,0.3,45,17.5,10.8
903,903.3,648.8,70.3,3.2,2.6,262.36,0.3,45,17.5,10.8
904,904.33,571,70,5.5,2.1,308.22,0.3,45,17.5,10.8
905,905.36,656.3,70.5,4.6,2.2,296.35,0.3,45,17.5,10.8
906,906.35,634.5,69.9,5.6,2.1,275.89,0.3,45,17.5,10.8
907,907.34,647.5,69.7,5.5,2.5,261.46,0.3,45,17.5,10.8
908,908.29,603.8,70.1,6.9,3.2,305.05,0.3,45,17.5,10.8
909,909.46,626.3,70.3,4.4,2.3,294.04,0.3,45,17.5,10.8
910,910.36,570.6,69.8,5,1,239.84,0.3,45,17.5,10.8
911,911.25,650,69.4,3.9,-1.4,186.2,0.3,45,17.5,10.8
912,912.25,629.7,70,2.9,-2.3,149.4,0.3,45,17.5,10.8
913,913.43,624.7,70.2,5.1,-0.3,211.83,0.5,45,17.5,10.8
